/*****
Graph for period 1999-2004
*****/

graph G {
  graph [splines=true overlap=false]
  node  [shape=ellipse, width=0.3, height=0.3]
  0 [label="Vijayshankar Raman"];
  1 [label="Sara Cohen"];
  2 [label="Werner Nutt"];
  3 [label="Alexander Serebrenik"];
  4 [label="Luc Boasson"];
  5 [label="gielski"];
  6 [label="ne Guessarian"];
  7 [label="Yuri V. Matiyasevich"];
  8 [label="Peter Buneman"];
  9 [label="Wenfei Fan"];
  10 [label="Scott Weinstein"];
  11 [label="Lars Arge"];
  12 [label="Vasilis Samoladas"];
  13 [label="Jeffrey Scott Vitter"];
  14 [label="Diego Calvanese"];
  15 [label="Giuseppe De Giacomo"];
  16 [label="Maurizio Lenzerini"];
  17 [label="Moshe Y. Vardi"];
  18 [label="Jon M. Kleinberg"];
  19 [label="Andrew Tomkins"];
  20 [label="Marcelo Arenas"];
  21 [label="Leopoldo E. Bertossi"];
  22 [label="Jan Chomicki"];
  23 [label="Yaron Kanza"];
  24 [label="Yehoshua Sagiv"];
  25 [label="Howard J. Karloff"];
  26 [label="Milena Mihail"];
  27 [label="Steven Dawson"];
  28 [label="Sabrina De Capitani di Vimercati"];
  29 [label="Patrick Lincoln"];
  30 [label="Pierangela Samarati"];
  31 [label="Heiko Schuldt"];
  32 [label="Gustavo Alonso"];
  33 [label="rg Schek"];
  34 [label="Carmem S. Hara"];
  35 [label="Susan B. Davidson"];
  36 [label="Lauri Malmi"];
  37 [label="Eljas Soisalon-Soininen"];
  38 [label="Michael Benedikt"];
  39 [label="Leonid Libkin"];
  40 [label="Venkatesh Ganti"];
  41 [label="Johannes Gehrke"];
  42 [label="Raghu Ramakrishnan"];
  43 [label="Dimitris Papadias"];
  44 [label="Nikos Mamoulis"];
  45 [label="Yannis Theodoridis"];
  46 [label="Serge Abiteboul"];
  47 [label="Yousef J. Al-Houmaily"];
  48 [label="Panos K. Chrysanthis"];
  49 [label="Noga Alon"];
  50 [label="Phillip B. Gibbons"];
  51 [label="Yossi Matias"];
  52 [label="Mario Szegedy"];
  53 [label="Stavros S. Cosmadakis"];
  54 [label="Frank Neven"];
  55 [label="Thomas Schwentick"];
  56 [label="Armin Fessler"];
  57 [label="Guy Pardon"];
  58 [label="H. V. Jagadish"];
  59 [label="Raymond T. Ng"];
  60 [label="Divesh Srivastava"];
  61 [label="Anthony J. Bonner"];
  62 [label="Kelvin Kam Wing Chu"];
  63 [label="Man Hon Wong 0001"];
  64 [label="Francis C. Chu"];
  65 [label="Joseph Y. Halpern"];
  66 [label="Praveen Seshadri"];
  67 [label="J. D. Tygar"];
  68 [label="Sachin More"];
  69 [label="S. Muthukrishnan"];
  70 [label="Elizabeth A. M. Shriver"];
  71 [label="George Kollios"];
  72 [label="Dimitrios Gunopulos"];
  73 [label="Vassilis J. Tsotras"];
  74 [label="Jan Van den Bussche"];
  75 [label="Emmanuel Waller"];
  76 [label="Georg Gottlob"];
  77 [label="Nicola Leone"];
  78 [label="Francesco Scarcello"];
  79 [label="Tova Milo"];
  80 [label="Dan Suciu"];
  81 [label="phane Grumbach"];
  82 [label="Maurizio Rafanelli"];
  83 [label="Leonardo Tininini"];
  84 [label="Sophie Cluet"];
  85 [label="Olga Kapitskaia"];
  86 [label="Beng Chin Ooi"];
  87 [label="Kian-Lee Tan"];
  88 [label="Cui Yu"];
  89 [label="phane Bressan"];
  90 [label="Floris Geerts"];
  91 [label="Bart Kuijpers"];
  92 [label="Victor Vianu"];
  93 [label="Yannis Papakonstantinou"];
  94 [label="rger"];
  95 [label="Gottfried Vossen"];
  96 [label="Martin Grohe"];
  97 [label="Luc Segoufin"];
  98 [label="Hasan Davulcu"];
  99 [label="Guizhen Yang"];
  100 [label="Michael Kifer"];
  101 [label="I. V. Ramakrishnan"];
  102 [label="Nick Koudas"];
  103 [label="Zhiyuan Chen 0003"];
  104 [label="Flip Korn"];
  105 [label="Mehmet M. Dalkilic"];
  106 [label="Edward L. Robertson"];
  107 [label="Mikhail J. Atallah"];
  108 [label="Sunil Prabhakar"];
  109 [label="Moses Charikar"];
  110 [label="Surajit Chaudhuri"];
  111 [label="Rajeev Motwani"];
  112 [label="Vivek R. Narasayya"];
  113 [label="on"];
  114 [label="Shinichi Morishita"];
  115 [label="Jun Sese"];
  116 [label="Evgeny Dantsin"];
  117 [label="Andrei Voronkov"];
  118 [label="Fabrizio Angiulli"];
  119 [label="Rachel Ben-Eliyahu-Zohary"];
  120 [label="Giovambattista Ianni"];
  121 [label="Luigi Palopoli"];
  122 [label="David Gross 0001"];
  123 [label="Michel de Rougemont"];
  124 [label="Ravi Kumar 0001"];
  125 [label="Prabhakar Raghavan"];
  126 [label="Sridhar Rajagopalan"];
  127 [label="D. Sivakumar"];
  128 [label="Eli Upfal"];
  129 [label="Christos H. Papadimitriou"];
  130 [label="Pankaj K. Agarwal"];
  131 [label="Jeff Erickson 0001"];
  132 [label="Todd D. Millstein"];
  133 [label="Alon Y. Levy"];
  134 [label="Marc Friedman"];
  135 [label="Ronald Fagin"];
  136 [label="Amnon Lotem"];
  137 [label="Moni Naor"];
  138 [label="Dakshi Agrawal"];
  139 [label="Charu C. Aggarwal"];
  140 [label="Artur Bykowski"];
  141 [label="Christophe Rigotti"];
  142 [label="Reza Sadri"];
  143 [label="Carlo Zaniolo"];
  144 [label="Amir M. Zarkesh"];
  145 [label="Jafar Adibi"];
  146 [label="Mihalis Yannakakis"];
  147 [label="Trevor Jim"];
  148 [label="Anand Rajaraman"];
  149 [label="Jeffrey D. Ullman"];
  150 [label="Donghui Zhang"];
  151 [label="Alexander Markowetz"];
  152 [label="Bernhard Seeger"];
  153 [label="Paolo Ferragina"];
  154 [label="Anna C. Gilbert"];
  155 [label="Yannis Kotidis"];
  156 [label="Martin Strauss 0001"];
  157 [label="Alberto O. Mendelzon"];
  158 [label="George A. Mihaila"];
  159 [label="Jin-yi Cai"];
  160 [label="Venkatesan T. Chakaravarthy"];
  161 [label="Raghav Kaushik"];
  162 [label="Jeffrey F. Naughton"];
  163 [label="Sanjeev Khanna"];
  164 [label="Wang Chiew Tan"];
  165 [label="Nilesh N. Dalvi"];
  166 [label="Sumit K. Sanghai"];
  167 [label="Prasan Roy"];
  168 [label="S. Sudarshan 0001"];
  169 [label="Carlos A. Hurtado"];
  170 [label="Christoph Koch 0001"];
  171 [label="Foto N. Afrati"];
  172 [label="Chen Li 0001"];
  173 [label="Prasenjit Mitra"];
  174 [label="Dennis E. Shasha"];
  175 [label="Jason Tsong-Li Wang"];
  176 [label="Rosalba Giugno"];
  177 [label="Rolfe R. Schmidt"];
  178 [label="Cyrus Shahabi"];
  179 [label="Chung-Min Chen"];
  180 [label="Christine T. Cheng"];
  181 [label="Brian Babcock"];
  182 [label="Shivnath Babu"];
  183 [label="Mayur Datar"];
  184 [label="Jennifer Widom"];
  185 [label="Arvind Arasu"];
  186 [label="Jon McAlister"];
  187 [label="Gerome Miklau"];
  188 [label="Marco Cadoli"];
  189 [label="Toni Mancini"];
  190 [label="Sudipto Guha"];
  191 [label="Edith Cohen"];
  192 [label="Haim Kaplan"];
  193 [label="Hoda Mokhtar"];
  194 [label="Jianwen Su"];
  195 [label="Oscar H. Ibarra"];
  196 [label="Sourav Chatterji"];
  197 [label="Sai Surya Kiran Evani"];
  198 [label="Sumit Ganguly"];
  199 [label="Mahesh Datt Yemmanuru"];
  200 [label="Marc Spielmann"];
  201 [label="Jerzy Tyszkiewicz"];
  202 [label="Minos N. Garofalakis"];
  203 [label="Amit Kumar 0001"];
  204 [label="Reinhard Pichler"];
  205 [label="Jens-Peter Dittrich"];
  206 [label="David Scot Taylor"];
  207 [label="Peter Widmayer"];
  208 [label="Helmut Seidl"];
  209 [label="Anca Muscholl"];
  210 [label="sta Grahne"];
  211 [label="Alex Thomo"];
  212 [label="Ken Q. Pu"];
  213 [label="Samir Khuller"];
  214 [label="Yoo Ah Kim"];
  215 [label="Yung-Chun (Justin) Wan"];
  216 [label="Richard Hull 0001"];
  217 [label="Vassilis Christophides"];
  218 [label="Alexandre V. Evfimievski"];
  219 [label="Ramakrishnan Srikant"];
  220 [label="Daniel Kifer"];
  221 [label="Cristian Bucila"];
  222 [label="Walker M. White"];
  223 [label="Irit Dinur"];
  224 [label="Kobbi Nissim"];
  225 [label="Ganesh Ramesh"];
  226 [label="William Maniatty"];
  227 [label="Mohammed Javeed Zaki"];
  228 [label="Rada Chirkova"];
  229 [label="Phokion G. Kolaitis"];
  230 [label="Lucian Popa 0001"];
  231 [label="Liadan O'Callaghan"];
  232 [label="Ashish Kumar Gupta"];
  233 [label="Alon Y. Halevy"];
  234 [label="Andrea Cal"];
  235 [label="Domenico Lembo"];
  236 [label="Riccardo Rosati"];
  237 [label="Cinda Heeren"];
  238 [label="Leonard Pitt"];
  239 [label="Graham Cormode"];
  1 -- 2;
  1 -- 3;
  1 -- 24;
  2 -- 3;
  2 -- 23;
  2 -- 24;
  4 -- 5;
  4 -- 6;
  4 -- 7;
  5 -- 6;
  5 -- 7;
  6 -- 7;
  8 -- 9;
  8 -- 10;
  8 -- 163;
  8 -- 164;
  9 -- 10;
  9 -- 20;
  9 -- 39;
  9 -- 113;
  11 -- 12;
  11 -- 13;
  11 -- 130;
  11 -- 131;
  12 -- 13;
  14 -- 15;
  14 -- 16;
  14 -- 17;
  15 -- 16;
  15 -- 17;
  16 -- 17;
  18 -- 19;
  18 -- 125;
  18 -- 129;
  19 -- 124;
  19 -- 125;
  19 -- 126;
  19 -- 127;
  19 -- 128;
  20 -- 21;
  20 -- 22;
  20 -- 39;
  21 -- 22;
  23 -- 24;
  25 -- 26;
  27 -- 28;
  27 -- 29;
  27 -- 30;
  28 -- 29;
  28 -- 30;
  29 -- 30;
  31 -- 32;
  31 -- 33;
  32 -- 33;
  32 -- 56;
  32 -- 57;
  33 -- 56;
  33 -- 57;
  34 -- 35;
  36 -- 37;
  38 -- 39;
  38 -- 55;
  38 -- 96;
  38 -- 97;
  38 -- 194;
  38 -- 216;
  38 -- 217;
  39 -- 55;
  39 -- 96;
  39 -- 97;
  40 -- 41;
  40 -- 42;
  41 -- 42;
  41 -- 64;
  41 -- 65;
  41 -- 218;
  41 -- 219;
  41 -- 220;
  41 -- 221;
  41 -- 222;
  43 -- 44;
  43 -- 45;
  44 -- 45;
  46 -- 92;
  46 -- 97;
  47 -- 48;
  49 -- 50;
  49 -- 51;
  49 -- 52;
  49 -- 54;
  49 -- 79;
  49 -- 80;
  49 -- 92;
  50 -- 51;
  50 -- 52;
  51 -- 52;
  54 -- 55;
  54 -- 79;
  54 -- 80;
  54 -- 92;
  55 -- 97;
  55 -- 208;
  55 -- 209;
  56 -- 57;
  58 -- 59;
  58 -- 60;
  58 -- 237;
  58 -- 238;
  59 -- 60;
  60 -- 69;
  60 -- 84;
  60 -- 85;
  60 -- 102;
  60 -- 153;
  60 -- 190;
  62 -- 63;
  64 -- 65;
  64 -- 66;
  65 -- 66;
  68 -- 69;
  68 -- 70;
  69 -- 70;
  69 -- 102;
  69 -- 103;
  69 -- 104;
  69 -- 153;
  69 -- 154;
  69 -- 155;
  69 -- 156;
  69 -- 239;
  71 -- 72;
  71 -- 73;
  72 -- 73;
  72 -- 150;
  72 -- 151;
  72 -- 152;
  73 -- 150;
  73 -- 151;
  73 -- 152;
  74 -- 75;
  74 -- 200;
  74 -- 201;
  76 -- 77;
  76 -- 78;
  76 -- 170;
  76 -- 204;
  77 -- 78;
  79 -- 80;
  79 -- 92;
  79 -- 191;
  79 -- 192;
  80 -- 92;
  80 -- 147;
  80 -- 187;
  80 -- 232;
  80 -- 233;
  81 -- 82;
  81 -- 83;
  82 -- 83;
  84 -- 85;
  86 -- 87;
  86 -- 88;
  86 -- 89;
  87 -- 88;
  87 -- 89;
  88 -- 89;
  90 -- 91;
  92 -- 93;
  92 -- 97;
  94 -- 95;
  96 -- 97;
  98 -- 99;
  98 -- 100;
  98 -- 101;
  99 -- 100;
  99 -- 101;
  100 -- 101;
  102 -- 103;
  102 -- 104;
  102 -- 153;
  102 -- 190;
  103 -- 104;
  105 -- 106;
  107 -- 108;
  109 -- 110;
  109 -- 111;
  109 -- 112;
  110 -- 111;
  110 -- 112;
  111 -- 112;
  111 -- 181;
  111 -- 182;
  111 -- 183;
  111 -- 184;
  111 -- 231;
  114 -- 115;
  116 -- 117;
  118 -- 119;
  118 -- 120;
  118 -- 121;
  119 -- 120;
  119 -- 121;
  120 -- 121;
  122 -- 123;
  124 -- 125;
  124 -- 126;
  124 -- 127;
  124 -- 128;
  125 -- 126;
  125 -- 127;
  125 -- 128;
  125 -- 129;
  126 -- 127;
  126 -- 128;
  127 -- 128;
  129 -- 146;
  130 -- 131;
  132 -- 133;
  132 -- 134;
  133 -- 134;
  135 -- 136;
  135 -- 137;
  135 -- 229;
  135 -- 230;
  136 -- 137;
  138 -- 139;
  140 -- 141;
  142 -- 143;
  142 -- 144;
  142 -- 145;
  143 -- 144;
  143 -- 145;
  144 -- 145;
  148 -- 149;
  150 -- 151;
  150 -- 152;
  151 -- 152;
  152 -- 205;
  152 -- 206;
  152 -- 207;
  154 -- 155;
  154 -- 156;
  155 -- 156;
  156 -- 191;
  157 -- 158;
  157 -- 169;
  157 -- 212;
  159 -- 160;
  159 -- 161;
  159 -- 162;
  160 -- 161;
  160 -- 162;
  161 -- 162;
  163 -- 164;
  165 -- 166;
  165 -- 167;
  165 -- 168;
  166 -- 167;
  166 -- 168;
  167 -- 168;
  170 -- 204;
  171 -- 172;
  171 -- 173;
  172 -- 173;
  172 -- 228;
  174 -- 175;
  174 -- 176;
  175 -- 176;
  177 -- 178;
  179 -- 180;
  181 -- 182;
  181 -- 183;
  181 -- 184;
  181 -- 185;
  181 -- 186;
  181 -- 231;
  182 -- 183;
  182 -- 184;
  182 -- 185;
  182 -- 186;
  183 -- 184;
  183 -- 231;
  184 -- 185;
  184 -- 186;
  185 -- 186;
  188 -- 189;
  191 -- 192;
  193 -- 194;
  193 -- 195;
  194 -- 195;
  194 -- 216;
  194 -- 217;
  196 -- 197;
  196 -- 198;
  196 -- 199;
  197 -- 198;
  197 -- 199;
  198 -- 199;
  200 -- 201;
  202 -- 203;
  205 -- 206;
  205 -- 207;
  206 -- 207;
  208 -- 209;
  210 -- 211;
  213 -- 214;
  213 -- 215;
  214 -- 215;
  216 -- 217;
  218 -- 219;
  220 -- 221;
  220 -- 222;
  221 -- 222;
  223 -- 224;
  225 -- 226;
  225 -- 227;
  226 -- 227;
  229 -- 230;
  232 -- 233;
  234 -- 235;
  234 -- 236;
  235 -- 236;
  237 -- 238;
  label = "\nGraph for period 1999-2004\n";  fontsize=24;
}
