/*****
Graph for period 1996-2001
*****/

graph G {
  graph [splines=true overlap=false]
  node  [shape=ellipse, width=0.3, height=0.3]
  0 [label="Jan Chomicki"];
  1 [label="Dina Q. Goldin"];
  2 [label="Gabriel M. Kuper"];
  3 [label="Marc Gyssens"];
  4 [label="Laks V. S. Lakshmanan"];
  5 [label="Iyer N. Subramanian"];
  6 [label="Takeshi Fukuda"];
  7 [label="Yasuhiko Morimoto"];
  8 [label="Shinichi Morishita"];
  9 [label="Takeshi Tokuyama"];
  10 [label="Anand Rajaraman"];
  11 [label="Jeffrey D. Ullman"];
  12 [label="Bernd-Uwe Pagel"];
  13 [label="Hans-Werner Six"];
  14 [label="Michael Benedikt"];
  15 [label="Timothy Griffin"];
  16 [label="Leonid Libkin"];
  17 [label="Serge Abiteboul"];
  18 [label="Laurent Herr"];
  19 [label="Jan Van den Bussche"];
  20 [label="Yannis Theodoridis"];
  21 [label="Timos K. Sellis"];
  22 [label="Alon Y. Levy"];
  23 [label="Man Hon Wong 0001"];
  24 [label="Ronald Fagin"];
  25 [label="Catriel Beeri"];
  26 [label="Tova Milo"];
  27 [label="Paula Ta-Shma"];
  28 [label="Sumit Ganguly"];
  29 [label="Akshay Goel"];
  30 [label="Abraham Silberschatz"];
  31 [label="phane Grumbach"];
  32 [label="Jianwen Su"];
  33 [label="Elisa Bertino"];
  34 [label="Barbara Catania"];
  35 [label="Max J. Egenhofer"];
  36 [label="H. V. Jagadish"];
  37 [label="Alberto O. Mendelzon"];
  38 [label="Inderpal Singh Mumick"];
  39 [label="Guozhu Dong"];
  40 [label="Limsoon Wong"];
  41 [label="Alfred V. Aho"];
  42 [label="David Toman"];
  43 [label="Alexei P. Stolboushkin"];
  44 [label="Michael A. Taitslin"];
  45 [label="Christos H. Papadimitriou"];
  46 [label="Moshe Y. Vardi"];
  47 [label="Michael J. Maher"];
  48 [label="Divesh Srivastava"];
  49 [label="Udi Manber"];
  50 [label="Claudio Bettini"];
  51 [label="Xiaoyang Sean Wang"];
  52 [label="Sushil Jajodia"];
  53 [label="Dan Suciu"];
  54 [label="Victor Vianu"];
  55 [label="Gustavo Alonso"];
  56 [label="Stephen Blott"];
  57 [label="Armin Fessler"];
  58 [label="rg Schek"];
  59 [label="Marie-Christine Rousset"];
  60 [label="Joseph Albert"];
  61 [label="Yannis E. Ioannidis"];
  62 [label="Raghu Ramakrishnan"];
  63 [label="Jonathan Goldstein"];
  64 [label="Uri Shaft"];
  65 [label="Jie-Bing Yu"];
  66 [label="Dirk Van Gucht"];
  67 [label="Freddy Dumortier"];
  68 [label="Luc Vandeurzen"];
  69 [label="Ching-Tien Ho"];
  70 [label="Jehoshua Bruck"];
  71 [label="Rakesh Agrawal 0001"];
  72 [label="Paolo Atzeni"];
  73 [label="Giansalvatore Mecca"];
  74 [label="Joseph M. Hellerstein"];
  75 [label="Elias Koutsoupias"];
  76 [label="Mihalis Yannakakis"];
  77 [label="Oscar H. Ibarra"];
  78 [label="zden"];
  79 [label="Rajeev Rastogi"];
  80 [label="Yuri Breitbart"];
  81 [label="Henry F. Korth"];
  82 [label="Stefan Berchtold"];
  83 [label="hm"];
  84 [label="Daniel A. Keim"];
  85 [label="Hans-Peter Kriegel"];
  86 [label="Wolfgang Scheufele"];
  87 [label="Guido Moerkotte"];
  88 [label="Dimitrios Gunopulos"];
  89 [label="Roni Khardon"];
  90 [label="Heikki Mannila"];
  91 [label="Hannu Toivonen"];
  92 [label="Guido Nerjes"];
  93 [label="Peter Muth"];
  94 [label="Gerhard Weikum"];
  95 [label="Oliver M. Duschka"];
  96 [label="Michael R. Genesereth"];
  97 [label="scher"];
  98 [label="Wolfgang May"];
  99 [label="Georg Lausen"];
  100 [label="Divyakant Agrawal"];
  101 [label="Amr El Abbadi"];
  102 [label="Robert C. Steinke"];
  103 [label="Paolo Ciaccia"];
  104 [label="Marco Patella"];
  105 [label="Pavel Zezula"];
  106 [label="Daniela Florescu"];
  107 [label="Bradley S. Fordham"];
  108 [label="Yelena Yesha"];
  109 [label="Frank Neven"];
  110 [label="Gottfried Vossen"];
  111 [label="Pierangela Samarati"];
  112 [label="Latanya Sweeney"];
  113 [label="Phokion G. Kolaitis"];
  114 [label="David L. Martin 0001"];
  115 [label="Madhukar N. Thakur"];
  116 [label="Stavros Christodoulakis"];
  117 [label="Fenia Zioga"];
  118 [label="Pankaj K. Agarwal"];
  119 [label="Lars Arge"];
  120 [label="Jeff Erickson 0001"];
  121 [label="Paolo Giulio Franciosa"];
  122 [label="Jeffrey Scott Vitter"];
  123 [label="Luc Segoufin"];
  124 [label="Diego Calvanese"];
  125 [label="Giuseppe De Giacomo"];
  126 [label="Maurizio Lenzerini"];
  127 [label="del"];
  128 [label="Yuri Gurevich"];
  129 [label="Colin Hirsch"];
  130 [label="Peter Buneman"];
  131 [label="Wenfei Fan"];
  132 [label="Scott Weinstein"];
  133 [label="Minos N. Garofalakis"];
  134 [label="Werner Nutt"];
  135 [label="Yehoshua Sagiv"];
  136 [label="Sara Shurin"];
  137 [label="David Scot Taylor"];
  138 [label="Prabhakar Raghavan"];
  139 [label="Hisao Tamaki"];
  140 [label="Santosh Vempala"];
  141 [label="John R. Smith"];
  142 [label="Chung-Sheng Li"];
  143 [label="Vittorio Castelli"];
  144 [label="Anant Jhingran"];
  145 [label="Charu C. Aggarwal"];
  146 [label="Philip S. Yu"];
  147 [label="James Bailey 0001"];
  148 [label="Kotagiri Ramamohanarao"];
  149 [label="Vasilis Samoladas"];
  150 [label="Daniel P. Miranker"];
  151 [label="Hasan Davulcu"];
  152 [label="Michael Kifer"];
  153 [label="C. R. Ramakrishnan"];
  154 [label="I. V. Ramakrishnan"];
  155 [label="Sergei G. Vorobyov"];
  156 [label="Andrei Voronkov"];
  157 [label="Sara Cohen"];
  158 [label="Alexander Serebrenik"];
  159 [label="Yaron Kanza"];
  160 [label="Luc Boasson"];
  161 [label="gielski"];
  162 [label="ne Guessarian"];
  163 [label="Yuri V. Matiyasevich"];
  164 [label="Jon M. Kleinberg"];
  165 [label="Andrew Tomkins"];
  166 [label="Marcelo Arenas"];
  167 [label="Leopoldo E. Bertossi"];
  168 [label="Howard J. Karloff"];
  169 [label="Milena Mihail"];
  170 [label="Steven Dawson"];
  171 [label="Sabrina De Capitani di Vimercati"];
  172 [label="Patrick Lincoln"];
  173 [label="Heiko Schuldt"];
  174 [label="Guy Pardon"];
  175 [label="Carmem S. Hara"];
  176 [label="Susan B. Davidson"];
  177 [label="Lauri Malmi"];
  178 [label="Eljas Soisalon-Soininen"];
  179 [label="Venkatesh Ganti"];
  180 [label="Johannes Gehrke"];
  181 [label="Dimitris Papadias"];
  182 [label="Nikos Mamoulis"];
  183 [label="Yousef J. Al-Houmaily"];
  184 [label="Panos K. Chrysanthis"];
  185 [label="Noga Alon"];
  186 [label="Phillip B. Gibbons"];
  187 [label="Yossi Matias"];
  188 [label="Mario Szegedy"];
  189 [label="Thomas Schwentick"];
  190 [label="Raymond T. Ng"];
  191 [label="Sophie Cluet"];
  192 [label="Olga Kapitskaia"];
  193 [label="Kelvin Kam Wing Chu"];
  194 [label="Francis C. Chu"];
  195 [label="Joseph Y. Halpern"];
  196 [label="Praveen Seshadri"];
  197 [label="Sachin More"];
  198 [label="S. Muthukrishnan"];
  199 [label="Elizabeth A. M. Shriver"];
  200 [label="George Kollios"];
  201 [label="Vassilis J. Tsotras"];
  202 [label="Emmanuel Waller"];
  203 [label="Georg Gottlob"];
  204 [label="Nicola Leone"];
  205 [label="Francesco Scarcello"];
  206 [label="Maurizio Rafanelli"];
  207 [label="Leonardo Tininini"];
  208 [label="Beng Chin Ooi"];
  209 [label="Kian-Lee Tan"];
  210 [label="Cui Yu"];
  211 [label="phane Bressan"];
  212 [label="Floris Geerts"];
  213 [label="Bart Kuijpers"];
  214 [label="Yannis Papakonstantinou"];
  215 [label="rger"];
  216 [label="Martin Grohe"];
  217 [label="Guizhen Yang"];
  218 [label="Nick Koudas"];
  219 [label="Zhiyuan Chen 0003"];
  220 [label="Flip Korn"];
  221 [label="Mehmet M. Dalkilic"];
  222 [label="Edward L. Robertson"];
  223 [label="Mikhail J. Atallah"];
  224 [label="Sunil Prabhakar"];
  225 [label="Moses Charikar"];
  226 [label="Surajit Chaudhuri"];
  227 [label="Rajeev Motwani"];
  228 [label="Vivek R. Narasayya"];
  229 [label="on"];
  230 [label="Jun Sese"];
  231 [label="Evgeny Dantsin"];
  232 [label="Fabrizio Angiulli"];
  233 [label="Rachel Ben-Eliyahu-Zohary"];
  234 [label="Giovambattista Ianni"];
  235 [label="Luigi Palopoli"];
  236 [label="David Gross 0001"];
  237 [label="Michel de Rougemont"];
  238 [label="Ravi Kumar 0001"];
  239 [label="Sridhar Rajagopalan"];
  240 [label="D. Sivakumar"];
  241 [label="Eli Upfal"];
  242 [label="Todd D. Millstein"];
  243 [label="Marc Friedman"];
  0 -- 1;
  0 -- 2;
  0 -- 166;
  0 -- 167;
  1 -- 2;
  2 -- 17;
  2 -- 45;
  2 -- 46;
  3 -- 4;
  3 -- 5;
  3 -- 19;
  3 -- 66;
  3 -- 67;
  3 -- 68;
  4 -- 5;
  6 -- 7;
  6 -- 8;
  6 -- 9;
  7 -- 8;
  7 -- 9;
  8 -- 9;
  8 -- 230;
  10 -- 11;
  10 -- 22;
  11 -- 22;
  12 -- 13;
  14 -- 15;
  14 -- 16;
  14 -- 39;
  14 -- 40;
  14 -- 123;
  14 -- 216;
  15 -- 16;
  16 -- 39;
  16 -- 40;
  16 -- 123;
  16 -- 216;
  17 -- 18;
  17 -- 19;
  17 -- 45;
  17 -- 46;
  17 -- 54;
  17 -- 95;
  17 -- 107;
  17 -- 108;
  18 -- 19;
  19 -- 66;
  19 -- 109;
  19 -- 110;
  19 -- 202;
  20 -- 21;
  20 -- 181;
  20 -- 182;
  22 -- 25;
  22 -- 53;
  22 -- 59;
  22 -- 106;
  22 -- 242;
  22 -- 243;
  23 -- 193;
  25 -- 26;
  25 -- 27;
  25 -- 59;
  26 -- 27;
  26 -- 37;
  26 -- 53;
  26 -- 54;
  28 -- 29;
  28 -- 30;
  29 -- 30;
  30 -- 61;
  30 -- 78;
  30 -- 79;
  30 -- 133;
  31 -- 32;
  31 -- 206;
  31 -- 207;
  32 -- 77;
  33 -- 34;
  36 -- 37;
  36 -- 38;
  36 -- 48;
  36 -- 190;
  37 -- 38;
  39 -- 40;
  39 -- 147;
  39 -- 148;
  43 -- 44;
  45 -- 46;
  45 -- 53;
  45 -- 54;
  45 -- 74;
  45 -- 75;
  45 -- 76;
  45 -- 138;
  45 -- 139;
  45 -- 140;
  45 -- 164;
  46 -- 113;
  46 -- 124;
  46 -- 125;
  46 -- 126;
  47 -- 48;
  48 -- 190;
  48 -- 191;
  48 -- 192;
  48 -- 198;
  48 -- 218;
  50 -- 51;
  50 -- 52;
  51 -- 52;
  53 -- 54;
  53 -- 106;
  54 -- 107;
  54 -- 108;
  54 -- 123;
  54 -- 214;
  55 -- 56;
  55 -- 57;
  55 -- 58;
  55 -- 173;
  55 -- 174;
  56 -- 57;
  56 -- 58;
  57 -- 58;
  57 -- 174;
  58 -- 173;
  58 -- 174;
  60 -- 61;
  60 -- 62;
  61 -- 62;
  61 -- 78;
  61 -- 133;
  62 -- 63;
  62 -- 64;
  62 -- 65;
  62 -- 179;
  62 -- 180;
  63 -- 64;
  63 -- 65;
  64 -- 65;
  66 -- 67;
  66 -- 68;
  66 -- 109;
  66 -- 110;
  67 -- 68;
  69 -- 70;
  69 -- 71;
  70 -- 71;
  72 -- 73;
  74 -- 75;
  75 -- 137;
  78 -- 79;
  78 -- 133;
  80 -- 81;
  82 -- 83;
  82 -- 84;
  82 -- 85;
  83 -- 84;
  83 -- 85;
  84 -- 85;
  86 -- 87;
  88 -- 89;
  88 -- 90;
  88 -- 91;
  88 -- 200;
  88 -- 201;
  89 -- 90;
  89 -- 91;
  90 -- 91;
  92 -- 93;
  92 -- 94;
  93 -- 94;
  95 -- 96;
  97 -- 98;
  97 -- 99;
  98 -- 99;
  100 -- 101;
  100 -- 102;
  101 -- 102;
  103 -- 104;
  103 -- 105;
  104 -- 105;
  107 -- 108;
  109 -- 110;
  109 -- 189;
  110 -- 215;
  111 -- 112;
  111 -- 170;
  111 -- 171;
  111 -- 172;
  113 -- 114;
  113 -- 115;
  114 -- 115;
  116 -- 117;
  118 -- 119;
  118 -- 120;
  118 -- 121;
  118 -- 122;
  119 -- 120;
  119 -- 121;
  119 -- 122;
  119 -- 149;
  120 -- 121;
  120 -- 122;
  121 -- 122;
  122 -- 149;
  123 -- 216;
  124 -- 125;
  124 -- 126;
  125 -- 126;
  127 -- 128;
  127 -- 129;
  128 -- 129;
  130 -- 131;
  130 -- 132;
  131 -- 132;
  131 -- 229;
  134 -- 135;
  134 -- 136;
  134 -- 157;
  134 -- 158;
  134 -- 159;
  135 -- 136;
  135 -- 159;
  138 -- 139;
  138 -- 140;
  138 -- 164;
  138 -- 165;
  138 -- 238;
  138 -- 239;
  138 -- 240;
  138 -- 241;
  139 -- 140;
  141 -- 142;
  141 -- 143;
  141 -- 144;
  142 -- 143;
  142 -- 144;
  143 -- 144;
  145 -- 146;
  147 -- 148;
  149 -- 150;
  151 -- 152;
  151 -- 153;
  151 -- 154;
  151 -- 217;
  152 -- 153;
  152 -- 154;
  152 -- 217;
  153 -- 154;
  154 -- 217;
  155 -- 156;
  156 -- 231;
  157 -- 158;
  160 -- 161;
  160 -- 162;
  160 -- 163;
  161 -- 162;
  161 -- 163;
  162 -- 163;
  164 -- 165;
  165 -- 238;
  165 -- 239;
  165 -- 240;
  165 -- 241;
  166 -- 167;
  168 -- 169;
  170 -- 171;
  170 -- 172;
  171 -- 172;
  175 -- 176;
  177 -- 178;
  179 -- 180;
  181 -- 182;
  183 -- 184;
  185 -- 186;
  185 -- 187;
  185 -- 188;
  186 -- 187;
  186 -- 188;
  187 -- 188;
  191 -- 192;
  194 -- 195;
  194 -- 196;
  195 -- 196;
  197 -- 198;
  197 -- 199;
  198 -- 199;
  198 -- 218;
  198 -- 219;
  198 -- 220;
  200 -- 201;
  203 -- 204;
  203 -- 205;
  204 -- 205;
  206 -- 207;
  208 -- 209;
  208 -- 210;
  208 -- 211;
  209 -- 210;
  209 -- 211;
  210 -- 211;
  212 -- 213;
  218 -- 219;
  218 -- 220;
  219 -- 220;
  221 -- 222;
  223 -- 224;
  225 -- 226;
  225 -- 227;
  225 -- 228;
  226 -- 227;
  226 -- 228;
  227 -- 228;
  232 -- 233;
  232 -- 234;
  232 -- 235;
  233 -- 234;
  233 -- 235;
  234 -- 235;
  236 -- 237;
  238 -- 239;
  238 -- 240;
  238 -- 241;
  239 -- 240;
  239 -- 241;
  240 -- 241;
  242 -- 243;
  label = "\nGraph for period 1996-2001\n";  fontsize=24;
}
