/*****
Graph for 2019
*****/

graph G {
  graph [splines=true overlap=false]
  node  [shape=ellipse, width=0.3, height=0.3]
  0 [label="Michael Langberg"];
  1 [label="Shi Li"];
  2 [label="Sai Vikneshwar Mani Jayaraman"];
  3 [label="Atri Rudra"];
  4 [label="Michael Mitzenmacher"];
  5 [label="Tom Morgan"];
  6 [label="David Baelde"];
  7 [label="Anthony Lick"];
  8 [label="Sylvain Schmitz"];
  9 [label="Nofar Carmeli"];
  10 [label="ll"];
  11 [label="Sepehr Assadi"];
  12 [label="Nikolai Karpov"];
  13 [label="Qin Zhang"];
  14 [label="Antoine Amarilli"];
  15 [label="Pierre Bourhis"];
  16 [label="Stefan Mengel"];
  17 [label="Matthias Niewerth"];
  18 [label="Marco Calautti"];
  19 [label="Marco Console"];
  20 [label="Andreas Pieris"];
  21 [label="Slawek Staworko"];
  22 [label="Piotr Wieczorek"];
  23 [label="Sarvar Patel"];
  24 [label="Giuseppe Persiano"];
  25 [label="Kevin Yeo"];
  26 [label="Cynthia Dwork"];
  27 [label="Xiao Hu"];
  28 [label="Ke Yi 0001"];
  29 [label="Liat Peterfreund"];
  30 [label="Dominik D. Freydenberger"];
  31 [label="Benny Kimelfeld"];
  32 [label="Christoph Berkholz"];
  33 [label="Hubie Chen"];
  34 [label="Phokion G. Kolaitis"];
  35 [label="Muhammad Tibi"];
  36 [label="Pablo Barcel"];
  37 [label="Alexander Baumgartner"];
  38 [label="Victor Dalmau"];
  39 [label="Michele Borassi"];
  40 [label="Alessandro Epasto"];
  41 [label="Silvio Lattanzi"];
  42 [label="Sergei Vassilvitskii"];
  43 [label="Morteza Zadimoghaddam"];
  44 [label="Wolfgang Fischl"];
  45 [label="Georg Gottlob"];
  46 [label="Davide Mario Longo"];
  47 [label="Reinhard Pichler"];
  48 [label="Noam Ravid"];
  49 [label="Dori Medini"];
  50 [label="Piotr Indyk"];
  51 [label="Ali Vakilian"];
  52 [label="Suresh Venkatasubramanian"];
  53 [label="Martin Grohe"];
  54 [label="Peter Lindner"];
  55 [label="Marcelo Arenas"];
  56 [label="Luis Alberto Croquevielle"];
  57 [label="Rajesh Jayaram"];
  58 [label="Cristian Riveros"];
  59 [label="Gokarna Sharma"];
  60 [label="Srikanta Tirthapura"];
  61 [label="David P. Woodruff"];
  62 [label="Yuichi Yoshida"];
  63 [label="Gerald Berger"];
  64 [label="Emanuel Sallinger"];
  65 [label="Leopoldo E. Bertossi"];
  66 [label="Jianwen Su"];
  67 [label="Dirk Van Gucht"];
  68 [label="Victor Vianu"];
  69 [label="Alan Fekete"];
  70 [label="Parosh Aziz Abdulla"];
  71 [label="C. Aiswarya"];
  72 [label="Mohamed Faouzi Atig"];
  73 [label="Marco Montali"];
  74 [label="George Konstantinidis"];
  75 [label="Fabio Mogavero"];
  76 [label="John Kallaugher"];
  77 [label="Andrew McGregor 0001"];
  78 [label="Eric Price"];
  79 [label="Sofya Vorotnikova"];
  80 [label="Johannes Doleschal"];
  81 [label="Wim Martens"];
  82 [label="Yoav Nahshon"];
  83 [label="Frank Neven"];
  84 [label="Mahmoud Abo Khamis"];
  85 [label="Ryan R. Curtin"];
  86 [label="Benjamin Moseley"];
  87 [label="Hung Q. Ngo 0001"];
  88 [label="XuanLong Nguyen"];
  89 [label="Dan Olteanu"];
  90 [label="Maximilian Schleich"];
  0 -- 1;
  0 -- 2;
  0 -- 3;
  1 -- 2;
  1 -- 3;
  2 -- 3;
  4 -- 5;
  6 -- 7;
  6 -- 8;
  7 -- 8;
  9 -- 10;
  10 -- 29;
  10 -- 30;
  10 -- 31;
  11 -- 12;
  11 -- 13;
  12 -- 13;
  12 -- 61;
  14 -- 15;
  14 -- 16;
  14 -- 17;
  14 -- 31;
  15 -- 16;
  15 -- 17;
  16 -- 17;
  17 -- 81;
  18 -- 19;
  18 -- 20;
  19 -- 20;
  20 -- 36;
  20 -- 45;
  20 -- 63;
  20 -- 64;
  21 -- 22;
  23 -- 24;
  23 -- 25;
  24 -- 25;
  27 -- 28;
  28 -- 31;
  28 -- 36;
  28 -- 52;
  28 -- 55;
  28 -- 66;
  28 -- 68;
  28 -- 81;
  28 -- 83;
  29 -- 30;
  29 -- 31;
  30 -- 31;
  31 -- 34;
  31 -- 35;
  31 -- 36;
  31 -- 37;
  31 -- 38;
  31 -- 48;
  31 -- 49;
  31 -- 55;
  31 -- 66;
  31 -- 68;
  31 -- 80;
  31 -- 81;
  31 -- 82;
  31 -- 83;
  32 -- 33;
  33 -- 62;
  34 -- 35;
  36 -- 37;
  36 -- 38;
  36 -- 55;
  36 -- 66;
  36 -- 68;
  36 -- 81;
  36 -- 83;
  37 -- 38;
  39 -- 40;
  39 -- 41;
  39 -- 42;
  39 -- 43;
  40 -- 41;
  40 -- 42;
  40 -- 43;
  41 -- 42;
  41 -- 43;
  42 -- 43;
  44 -- 45;
  44 -- 46;
  44 -- 47;
  45 -- 46;
  45 -- 47;
  45 -- 63;
  45 -- 64;
  45 -- 65;
  46 -- 47;
  47 -- 65;
  48 -- 49;
  50 -- 51;
  50 -- 61;
  51 -- 61;
  52 -- 77;
  53 -- 54;
  55 -- 56;
  55 -- 57;
  55 -- 58;
  55 -- 66;
  55 -- 68;
  55 -- 81;
  55 -- 83;
  56 -- 57;
  56 -- 58;
  57 -- 58;
  57 -- 59;
  57 -- 60;
  57 -- 61;
  59 -- 60;
  59 -- 61;
  60 -- 61;
  63 -- 64;
  66 -- 67;
  66 -- 68;
  66 -- 81;
  66 -- 83;
  67 -- 68;
  68 -- 81;
  68 -- 83;
  70 -- 71;
  70 -- 72;
  70 -- 73;
  71 -- 72;
  71 -- 73;
  72 -- 73;
  74 -- 75;
  76 -- 77;
  76 -- 78;
  76 -- 79;
  77 -- 78;
  77 -- 79;
  78 -- 79;
  80 -- 81;
  80 -- 82;
  80 -- 83;
  81 -- 82;
  81 -- 83;
  82 -- 83;
  84 -- 85;
  84 -- 86;
  84 -- 87;
  84 -- 88;
  84 -- 89;
  84 -- 90;
  85 -- 86;
  85 -- 87;
  85 -- 88;
  85 -- 89;
  85 -- 90;
  86 -- 87;
  86 -- 88;
  86 -- 89;
  86 -- 90;
  87 -- 88;
  87 -- 89;
  87 -- 90;
  88 -- 89;
  88 -- 90;
  89 -- 90;
  label = "\nGraph for 2019\n";  fontsize=24;
}
