/*****
Graph for 1999
*****/

graph G {
  graph [splines=true overlap=false]
  node  [shape=ellipse, width=0.3, height=0.3]
  0 [label="Vijayshankar Raman"];
  1 [label="Sara Cohen"];
  2 [label="Werner Nutt"];
  3 [label="Alexander Serebrenik"];
  4 [label="Luc Boasson"];
  5 [label="gielski"];
  6 [label="ne Guessarian"];
  7 [label="Yuri V. Matiyasevich"];
  8 [label="Peter Buneman"];
  9 [label="Wenfei Fan"];
  10 [label="Scott Weinstein"];
  11 [label="Lars Arge"];
  12 [label="Vasilis Samoladas"];
  13 [label="Jeffrey Scott Vitter"];
  14 [label="Diego Calvanese"];
  15 [label="Giuseppe De Giacomo"];
  16 [label="Maurizio Lenzerini"];
  17 [label="Moshe Y. Vardi"];
  18 [label="Jon M. Kleinberg"];
  19 [label="Andrew Tomkins"];
  20 [label="Marcelo Arenas"];
  21 [label="Leopoldo E. Bertossi"];
  22 [label="Jan Chomicki"];
  23 [label="Yaron Kanza"];
  24 [label="Yehoshua Sagiv"];
  25 [label="Howard J. Karloff"];
  26 [label="Milena Mihail"];
  27 [label="Steven Dawson"];
  28 [label="Sabrina De Capitani di Vimercati"];
  29 [label="Patrick Lincoln"];
  30 [label="Pierangela Samarati"];
  31 [label="Heiko Schuldt"];
  32 [label="Gustavo Alonso"];
  33 [label="rg Schek"];
  34 [label="Carmem S. Hara"];
  35 [label="Susan B. Davidson"];
  36 [label="Lauri Malmi"];
  37 [label="Eljas Soisalon-Soininen"];
  38 [label="Michael Benedikt"];
  39 [label="Leonid Libkin"];
  40 [label="Venkatesh Ganti"];
  41 [label="Johannes Gehrke"];
  42 [label="Raghu Ramakrishnan"];
  43 [label="Dimitris Papadias"];
  44 [label="Nikos Mamoulis"];
  45 [label="Yannis Theodoridis"];
  46 [label="Serge Abiteboul"];
  47 [label="Yousef J. Al-Houmaily"];
  48 [label="Panos K. Chrysanthis"];
  49 [label="Noga Alon"];
  50 [label="Phillip B. Gibbons"];
  51 [label="Yossi Matias"];
  52 [label="Mario Szegedy"];
  53 [label="Stavros S. Cosmadakis"];
  54 [label="Frank Neven"];
  55 [label="Thomas Schwentick"];
  56 [label="Armin Fessler"];
  57 [label="Guy Pardon"];
  58 [label="H. V. Jagadish"];
  59 [label="Raymond T. Ng"];
  60 [label="Divesh Srivastava"];
  61 [label="Anthony J. Bonner"];
  62 [label="Kelvin Kam Wing Chu"];
  63 [label="Man Hon Wong 0001"];
  64 [label="Francis C. Chu"];
  65 [label="Joseph Y. Halpern"];
  66 [label="Praveen Seshadri"];
  67 [label="J. D. Tygar"];
  68 [label="Sachin More"];
  69 [label="S. Muthukrishnan"];
  70 [label="Elizabeth A. M. Shriver"];
  71 [label="George Kollios"];
  72 [label="Dimitrios Gunopulos"];
  73 [label="Vassilis J. Tsotras"];
  74 [label="Jan Van den Bussche"];
  75 [label="Emmanuel Waller"];
  76 [label="Georg Gottlob"];
  77 [label="Nicola Leone"];
  78 [label="Francesco Scarcello"];
  79 [label="Tova Milo"];
  80 [label="Dan Suciu"];
  81 [label="phane Grumbach"];
  82 [label="Maurizio Rafanelli"];
  83 [label="Leonardo Tininini"];
  84 [label="Sophie Cluet"];
  85 [label="Olga Kapitskaia"];
  1 -- 2;
  1 -- 3;
  1 -- 23;
  1 -- 24;
  2 -- 3;
  2 -- 15;
  2 -- 23;
  2 -- 24;
  3 -- 23;
  3 -- 24;
  4 -- 5;
  4 -- 6;
  4 -- 7;
  5 -- 6;
  5 -- 7;
  6 -- 7;
  8 -- 9;
  8 -- 10;
  8 -- 46;
  8 -- 80;
  9 -- 10;
  11 -- 12;
  11 -- 13;
  12 -- 13;
  13 -- 50;
  13 -- 51;
  13 -- 70;
  14 -- 15;
  14 -- 16;
  14 -- 17;
  15 -- 16;
  15 -- 17;
  16 -- 17;
  17 -- 58;
  17 -- 65;
  17 -- 74;
  18 -- 19;
  20 -- 21;
  20 -- 22;
  21 -- 22;
  23 -- 24;
  25 -- 26;
  27 -- 28;
  27 -- 29;
  27 -- 30;
  28 -- 29;
  28 -- 30;
  29 -- 30;
  31 -- 32;
  31 -- 33;
  32 -- 33;
  32 -- 56;
  32 -- 57;
  33 -- 56;
  33 -- 57;
  33 -- 81;
  34 -- 35;
  36 -- 37;
  38 -- 39;
  40 -- 41;
  40 -- 42;
  41 -- 42;
  41 -- 69;
  42 -- 46;
  42 -- 84;
  43 -- 44;
  43 -- 45;
  44 -- 45;
  45 -- 73;
  46 -- 74;
  46 -- 79;
  46 -- 80;
  46 -- 84;
  47 -- 48;
  49 -- 50;
  49 -- 51;
  49 -- 52;
  50 -- 51;
  50 -- 52;
  50 -- 70;
  51 -- 52;
  51 -- 70;
  54 -- 55;
  54 -- 74;
  56 -- 57;
  58 -- 59;
  58 -- 60;
  58 -- 69;
  58 -- 74;
  58 -- 79;
  58 -- 85;
  59 -- 60;
  59 -- 85;
  60 -- 79;
  60 -- 84;
  60 -- 85;
  62 -- 63;
  64 -- 65;
  64 -- 66;
  65 -- 66;
  68 -- 69;
  68 -- 70;
  69 -- 70;
  71 -- 72;
  71 -- 73;
  72 -- 73;
  74 -- 75;
  76 -- 77;
  76 -- 78;
  77 -- 78;
  79 -- 80;
  79 -- 81;
  79 -- 84;
  81 -- 82;
  81 -- 83;
  82 -- 83;
  84 -- 85;
  label = "\nGraph for 1999\n";  fontsize=24;
}
